Modified potential without interaction
pass
pass
2  Ag  Ni  
10000   2.00000000000000E-0002  10000   6.70000000000000E-0004   6.70000000000000E+0000
47   1.07868200000000E+0002   4.16053990854323E+0000  fcc
 0.0000000000000000e+00  -1.4142135623731000e-01  -2.0000000000000001e-01  -2.4494897427831799e-01  -2.8284271247461901e-01
-3.1622776601683800e-01  -3.4641016151377502e-01  -3.7416573867739400e-01  -4.0000000000000002e-01  -4.2426406871192901e-01
-4.4721359549995798e-01  -4.6904157598234297e-01  -4.8989794855663599e-01  -5.0990195135927896e-01  -5.2915026221291805e-01
-5.4772255750516596e-01  -5.6568542494923801e-01  -5.8309518948452999e-01  -5.9999999999999998e-01  -6.1644140029689798e-01
-6.3245553203367599e-01  -6.4807406984078597e-01  -6.6332495807108005e-01  -6.7823299831252704e-01  -6.9282032302755103e-01
-7.0710678118654802e-01  -7.2111025509279802e-01  -7.3484692283495301e-01  -7.4833147735478800e-01  -7.6157731058639100e-01
-7.7459666924148296e-01  -7.8740078740118102e-01  -8.0000000000000004e-01  -8.1240384046359604e-01  -8.2462112512353203e-01
-8.3666002653407601e-01  -8.4852813742385702e-01  -8.6023252670426298e-01  -8.7177978870813500e-01  -8.8317608663278502e-01
-8.9442719099991597e-01  -9.0553851381374195e-01  -9.1651513899116799e-01  -9.2736184954957002e-01  -9.3808315196468595e-01
-9.4868329805051399e-01  -9.5916630466254404e-01  -9.6953597148326598e-01  -9.7979589711327097e-01  -9.8994949366116702e-01
-1.0000000000000000e+00  -1.0099504938362101e+00  -1.0198039027185599e+00  -1.0295630140987000e+00  -1.0392304845413300e+00
-1.0488088481701501e+00  -1.0583005244258401e+00  -1.0677078252031300e+00  -1.0770329614269001e+00  -1.0862780491200199e+00
-1.0954451150103299e+00  -1.1045361017187301e+00  -1.1135528725660000e+00  -1.1224972160321800e+00  -1.1313708498984800e+00
-1.1401754250991400e+00  -1.1489125293076099e+00  -1.1575836902790200e+00  -1.1661903789690600e+00  -1.1747340124470700e+00
-1.1832159566199201e+00  -1.1916375287812999e+00  -1.2000000000000000e+00  -1.2083045973594599e+00  -1.2165525060596400e+00
-1.2247448713915901e+00  -1.2328828005938000e+00  -1.2409673645990900e+00  -1.2489995996796801e+00  -1.2569805089976500e+00
-1.2649110640673500e+00  -1.2727922061357899e+00  -1.2806248474865700e+00  -1.2884098726725099e+00  -1.2961481396815699e+00
-1.3038404810405300e+00  -1.3114877048603999e+00  -1.3190905958272900e+00  -1.3266499161421601e+00  -1.3341664064126300e+00
-1.3416407864998701e+00  -1.3490737563232000e+00  -1.3564659966250501e+00  -1.3638181696985900e+00  -1.3711309200802100e+00
-1.3784048752090201e+00  -1.3856406460551001e+00  -1.3928388277184101e+00  -1.3999999999999999e+00  -1.4071247279470300e+00
-1.4142135623731000e+00  -1.4212670403551899e+00  -1.4282856857085700e+00  -1.4352700094407300e+00  -1.4422205101856000e+00
-1.4491376746189399e+00  -1.4560219778561001e+00  -1.4628738838327799e+00  -1.4696938456699100e+00  -1.4764823060233401e+00
-1.4832396974191300e+00  -1.4899664425751300e+00  -1.4966629547095800e+00  -1.5033296378372900e+00  -1.5099668870541501e+00
-1.5165750888103100e+00  -1.5231546211727800e+00  -1.5297058540778401e+00  -1.5362291495737199e+00  -1.5427248620541500e+00
-1.5491933384829699e+00  -1.5556349186103999e+00  -1.5620499351813300e+00  -1.5684387141358100e+00  -1.5748015748023600e+00
-1.5811388300841900e+00  -1.5874507866387499e+00  -1.5937377450509200e+00  -1.6000000000000001e+00  -1.6062378404208999e+00
-1.6124515496597100e+00  -1.6186414056238601e+00  -1.6248076809271901e+00  -1.6309506430300100e+00  -1.6370705543744899e+00
-1.6431676725155000e+00  -1.6492422502470601e+00  -1.6552945357246800e+00  -1.6613247725836100e+00  -1.6673332000533101e+00
-1.6733200530681500e+00  -1.6792855623746701e+00  -1.6852299546352700e+00  -1.6911534525287799e+00  -1.6970562748477100e+00
-1.7029386365926400e+00  -1.7088007490635100e+00  -1.7146428199482200e+00  -1.7204650534085300e+00  -1.7262676501632099e+00
-1.7320508075688801e+00  -1.7378147196982801e+00  -1.7435595774162700e+00  -1.7492855684535900e+00  -1.7549928774784200e+00
-1.7606816861659000e+00  -1.7663521732655700e+00  -1.7720045146669301e+00  -1.7776388834631200e+00  -1.7832554500127000e+00
-1.7888543819998299e+00  -1.7944358444926400e+00  -1.8000000000000000e+00  -1.8055470085267800e+00  -1.8110770276274799e+00
-1.8165902124584901e+00  -1.8220867158288601e+00  -1.8275666882497099e+00  -1.8330302779823400e+00  -1.8384776310850199e+00
-1.8439088914585799e+00  -1.8493242008906901e+00  -1.8547236990991400e+00  -1.8601075237738300e+00  -1.8654758106177600e+00
-1.8708286933869700e+00  -1.8761663039293699e+00  -1.8814887722226801e+00  -1.8867962264113201e+00  -1.8920887928424499e+00
-1.8973665961010300e+00  -1.9026297590440400e+00  -1.9078784028338900e+00  -1.9131126469709001e+00  -1.9183326093250901e+00
-1.9235384061671299e+00  -1.9287301521985900e+00  -1.9339079605813700e+00  -1.9390719429665300e+00  -1.9442222095223600e+00
-1.9493588689617900e+00  -1.9544820285692099e+00  -1.9595917942265400e+00  -1.9646882704388500e+00  -1.9697715603592201e+00
-1.9748417658131501e+00  -1.9798989873223301e+00  -1.9849433241279200e+00  -1.9899748742132399e+00  -1.9949937343260000e+00
-2.0000000000000000e+00  -2.0049937655763399e+00  -2.0099751242241801e+00  -2.0149441679609899e+00  -2.0199009876724201e+00
-2.0248456731316602e+00  -2.0297783130184399e+00  -2.0346989949375800e+00  -2.0396078054371101e+00  -2.0445048300260900e+00
-2.0493901531919199e+00  -2.0542638584174102e+00  -2.0591260281974000e+00  -2.0639767440550298e+00  -2.0688160865577201e+00
-2.0736441353327701e+00  -2.0784609690826499e+00  -2.0832666655999699e+00  -2.0880613017821101e+00  -2.0928449536456299e+00
-2.0976176963403002e+00  -2.1023796041628602e+00  -2.1071307505705499e+00  -2.1118712081942901e+00  -2.1166010488516700e+00
-2.1213203435596402e+00  -2.1260291625469301e+00  -2.1307275752662500e+00  -2.1354156504062600e+00  -2.1400934559032700e+00
-2.1447610589527200e+00  -2.1494185260204701e+00  -2.1540659228538002e+00  -2.1587033144922900e+00  -2.1633307652783902e+00
-2.1679483388678800e+00  -2.1725560982400398e+00  -2.1771541057077202e+00  -2.1817424229271398e+00  -2.1863211109075400e+00
-2.1908902300206599e+00  -2.1954498400100100e+00  -2.2000000000000002e+00  -2.2045407685048599e+00  -2.2090722034374499e+00
-2.2135943621178700e+00  -2.2181073012818802e+00  -2.2226110770892902e+00  -2.2271057451320102e+00  -2.2315913604421400e+00
-2.2360679774997898e+00  -2.2405356502408100e+00  -2.2449944320643600e+00  -2.2494443758404001e+00  -2.2538855339169301e+00
-2.2583179581272401e+00  -2.2627416997969498e+00  -2.2671568097509298e+00  -2.2715633383201101e+00  -2.2759613353482102e+00
-2.2803508501982801e+00  -2.2847319317591701e+00  -2.2891046284519199e+00  -2.2934689882359400e+00  -2.2978250586152100e+00
-2.3021728866442701e+00  -2.3065125189341602e+00  -2.3108440016582699e+00  -2.3151673805580502e+00  -2.3194827009486398e+00
-2.3237900077244502e+00  -2.3280893453645599e+00  -2.3323807579381199e+00  -2.3366642891095801e+00  -2.3409399821439201e+00
-2.3452078799117100e+00  -2.3494680248941502e+00  -2.3537204591879601e+00  -2.3579652245103202e+00  -2.3622023622035400e+00
-2.3664319132398499e+00  -2.3706539182259401e+00  -2.3748684174075798e+00  -2.3790754506740601e+00  -2.3832750575625998e+00
-2.3874672772626599e+00  -2.3916521486202802e+00  -2.3958297101421899e+00  -2.3999999999999999e+00  -2.4041630560342599e+00
-2.4083189157584601e+00  -2.4124676163629601e+00  -2.4166091947189101e+00  -2.4207436873820400e+00  -2.4248711305964301e+00
-2.4289915602982202e+00  -2.4331050121192899e+00  -2.4372115213907901e+00  -2.4413111231467401e+00  -2.4454038521274999e+00
-2.4494897427831801e+00  -2.4535688292770601e+00  -2.4576411454888998e+00  -2.4617067250182298e+00  -2.4657656011875901e+00
-2.4698178070456902e+00  -2.4738633753706001e+00  -2.4779023386727701e+00  -2.4819347291981702e+00  -2.4859605789312100e+00
-2.4899799195977499e+00  -2.4939927826679900e+00  -2.4979991993593602e+00  -2.5019992006393599e+00  -2.5059928172283299e+00
-2.5099800796022298e+00  -2.5139610179953098e+00  -2.5179356624028300e+00  -2.5219040425836998e+00  -2.5258661880630200e+00
-2.5298221281347000e+00  -2.5337718918639900e+00  -2.5377155080898999e+00  -2.5416530054277700e+00  -2.5455844122715701e+00
-2.5495097567963900e+00  -2.5534290669607400e+00  -2.5573423705088798e+00  -2.5612496949731400e+00  -2.5651510676761302e+00
-2.5690465157330298e+00  -2.5729360660537202e+00  -2.5768197453450301e+00  -2.5806975801127900e+00  -2.5845695966640201e+00
-2.5884358211089600e+00  -2.5922962793631399e+00  -2.5961509971494299e+00  -2.6000000000000001e+00  -2.6038433132583099e+00
-2.6076809620810599e+00  -2.6115129714401202e+00  -2.6153393661244002e+00  -2.6191601707417602e+00  -2.6229754097207998e+00
-2.6267851073127400e+00  -2.6305892875931800e+00  -2.6343879744639001e+00  -2.6381811916545801e+00  -2.6419689627245799e+00
-2.6457513110645898e+00  -2.6495282598983501e+00  -2.6532998322843202e+00  -2.6570660511172801e+00  -2.6608269391300099e+00
-2.6645825188948500e+00  -2.6683328128252701e+00  -2.6720778431774801e+00  -2.6758176320519298e+00  -2.6795522013948498e+00
-2.6832815729997499e+00  -2.6870057685088802e+00  -2.6907248094147400e+00  -2.6944387170614998e+00  -2.6981475126464098e+00
-2.7018512172212601e+00  -2.7055498516937400e+00  -2.7092434368288099e+00  -2.7129319932501099e+00  -2.7166155414412301e+00
-2.7202941017470899e+00  -2.7239676943752502e+00  -2.7276363393971699e+00  -2.7313000567495300e+00  -2.7349588662354698e+00
-2.7386127875258302e+00  -2.7422618401604200e+00  -2.7459060435492000e+00  -2.7495454169735001e+00  -2.7531799795872400e+00
-2.7568097504180402e+00  -2.7604347483684499e+00  -2.7640549922170501e+00  -2.7676705006196101e+00  -2.7712812921102001e+00
-2.7748873851023199e+00  -2.7784887978899602e+00  -2.7820855486487099e+00  -2.7856776554368201e+00  -2.7892651361962701e+00
-2.7928480087537899e+00  -2.7964262908219100e+00  -2.7999999999999998e+00  -2.8035691537752401e+00  -2.8071337695236398e+00
-2.8106938645110402e+00  -2.8142494558940601e+00  -2.8178005607210701e+00  -2.8213471959331802e+00  -2.8248893783651101e+00
-2.8284271247461898e+00  -2.8319604517012600e+00  -2.8354893757515698e+00  -2.8390139133156800e+00  -2.8425340807103798e+00
-2.8460498941515402e+00  -2.8495613697550000e+00  -2.8530685235374200e+00  -2.8565713714171399e+00  -2.8600699292150198e+00
-2.8635642126552701e+00  -2.8670542373662902e+00  -2.8705400188814600e+00  -2.8740215726399798e+00  -2.8774989139876301e+00
-2.8809720581775902e+00  -2.8844410203711899e+00  -2.8879058156387298e+00  -2.8913664589601900e+00  -2.8948229652260302e+00
-2.8982753492378901e+00  -2.9017236257093799e+00  -2.9051678092667901e+00  -2.9086079144497998e+00  -2.9120439557122100e+00
-2.9154759474226499e+00  -2.9189039038652802e+00  -2.9223278392404901e+00  -2.9257477676655599e+00  -2.9291637031753601e+00
-2.9325756597230401e+00  -2.9359836511806399e+00  -2.9393876913398098e+00  -2.9427877939124301e+00  -2.9461839725312502e+00
-2.9495762407505302e+00  -2.9529646120466801e+00  -2.9563490998189002e+00  -2.9597297173897501e+00  -2.9631064780058098e+00
-2.9664793948382702e+00  -2.9698484809835000e+00  -2.9732137494636999e+00  -2.9765752132274401e+00  -2.9799328851502702e+00
-2.9832867780352599e+00  -2.9866369046136199e+00  -2.9899832775452100e+00  -2.9933259094191502e+00  -2.9966648127543398e+00
-3.0000000000000000e+00  -3.0033314835179401e+00  -3.0066592753818102e+00  -3.0099833871763502e+00  -3.0133038299795998e+00
-3.0166206143634602e+00  -3.0199337503941699e+00  -3.0232432476328399e+00  -3.0265491151359498e+00  -3.0298513614558402e+00
-3.0331499946412102e+00  -3.0364450222376500e+00  -3.0397364512880398e+00  -3.0430242883331098e+00  -3.0463085394118798e+00
-3.0495892100621398e+00  -3.0528663053209200e+00  -3.0561398297249300e+00  -3.0594097873110599e+00  -3.0626761816168000e+00
-3.0659390156806898e+00  -3.0691982920427798e+00  -3.0724540127450801e+00  -3.0757061793319500e+00  -3.0789547928505998e+00
-3.0821998538514501e+00  -3.0854413623886101e+00  -3.0886793180202599e+00  -3.0919137198090998e+00  -3.0951445663227299e+00
-3.0983718556340700e+00  -3.1015955853217898e+00  -3.1048157524706701e+00  -3.1080323536720300e+00  -3.1112453850241000e+00
-3.1144548421324201e+00  -3.1176607201102300e+00  -3.1208630135788500e+00  -3.1240617166680500e+00  -3.1272568230164399e+00
-3.1304483257718401e+00  -3.1336362175916301e+00  -3.1368204906431401e+00  -3.1400011366039902e+00  -3.1431781466624802e+00
-3.1463515115179002e+00  -3.1495212213809198e+00  -3.1526872659739400e+00  -3.1558496345314002e+00  -3.1590083158001501e+00
-3.1621632980398000e+00  -3.1653145690230300e+00  -3.1684621160359199e+00  -3.1716059258783198e+00  -3.1747459848641402e+00
-3.1778822788216901e+00  -3.1810147930940098e+00  -3.1841435125391500e+00  -3.1872684215305500e+00  -3.1903895039572898e+00
-3.1935067432244502e+00  -3.1966201222533699e+00  -3.1997296234819999e+00  -3.2028352288651800e+00  -3.2059369198749401e+00
-3.2090346775008101e+00  -3.2121284822501002e+00  -3.2152183141481800e+00  -3.2183041527388201e+00  -3.2213859770844002e+00
-3.2244637657662798e+00  -3.2275374968850201e+00  -3.2306071480606700e+00  -3.2336726964330702e+00  -3.2367341186621199e+00
-3.2397913909280098e+00  -3.2428444889315600e+00  -3.2458933878944300e+00  -3.2489380625594202e+00  -3.2519784871907000e+00
-3.2550146355741001e+00  -3.2580464810173799e+00  -3.2610739963504298e+00  -3.2640971539255799e+00  -3.2671159256178499e+00
-3.2701302828251402e+00  -3.2731401964685598e+00  -3.2761456369926099e+00  -3.2791465743654702e+00  -3.2821429780792100e+00
-3.2851348171500501e+00  -3.2881220601185799e+00  -3.2911046750500201e+00  -3.2940826295344201e+00  -3.2970558906869400e+00
-3.3000244251480102e+00  -3.3029881990836500e+00  -3.3059471781855998e+00  -3.3089013276716299e+00  -3.3118506122856899e+00
-3.3147949962981702e+00  -3.3177344435362199e+00  -3.3206689177147601e+00  -3.3235983827675901e+00  -3.3265228028777001e+00
-3.3294421424774399e+00  -3.3323563662487401e+00  -3.3352654391233600e+00  -3.3381693262830399e+00  -3.3410679931597400e+00
-3.3439614054358300e+00  -3.3468495290442899e+00  -3.3497323301689201e+00  -3.3526097752445398e+00  -3.3554818309571801e+00
-3.3583484642442500e+00  -3.3612096422948099e+00  -3.3640653325496599e+00  -3.3669155027016302e+00  -3.3697601206956800e+00
-3.3725991547291598e+00  -3.3754325732519601e+00  -3.3782603449667001e+00  -3.3810824388289200e+00  -3.3838988240472299e+00
-3.3867094700835598e+00  -3.3895143466532698e+00  -3.3923134237253700e+00  -3.3951066715226501e+00  -3.3978940605219199e+00
-3.4006755614541402e+00  -3.4034511453045999e+00  -3.4062207833130702e+00  -3.4089844469740398e+00  -3.4117421080367900e+00
-3.4144937385056502e+00  -3.4172393106400998e+00  -3.4199787969549500e+00  -3.4227121702205401e+00  -3.4254394034628399e+00
-3.4281604699636699e+00  -3.4308753432608099e+00  -3.4335839971482098e+00  -3.4362864056760900e+00  -3.4389825431511301e+00
-3.4416723841366399e+00  -3.4443559034526698e+00  -3.4470330761761798e+00  -3.4497038776412299e+00  -3.4523682834390601e+00
-3.4550262694182901e+00  -3.4576778116850599e+00  -3.4603228866031399e+00  -3.4629614707941498e+00  -3.4655935411376300e+00
-3.4682190747711998e+00  -3.4708380490907600e+00  -3.4734504417505501e+00  -3.4760562306633398e+00  -3.4786553940005600e+00
-3.4812479101924199e+00  -3.4838337579280800e+00  -3.4864129161557602e+00  -3.4889853640828701e+00  -3.4915510811761998e+00
-3.4941100471619500e+00  -3.4966622420259799e+00  -3.4992076460138399e+00  -3.5017462396309700e+00  -3.5042780036428098e+00
-3.5068029190748899e+00  -3.5093209672130299e+00  -3.5118321296033899e+00  -3.5143363880526599e+00  -3.5168337246281300e+00
-3.5193241216578799e+00  -3.5218075617308200e+00  -3.5242840276968899e+00  -3.5267535026671299e+00  -3.5292159700138099e+00
-3.5316714133705802e+00  -3.5341198166325500e+00  -3.5365611639564301e+00  -3.5389954397606300e+00  -3.5414226287253898e+00
-3.5438427157929100e+00  -3.5462556861674099e+00  -3.5486615253153202e+00  -3.5510602189653300e+00  -3.5534517531085101e+00
-3.5558361139984802e+00  -3.5582132881514301e+00  -3.5605832623463098e+00  -3.5629460236248800e+00  -3.5653015592918700e+00
-3.5676498569150299e+00  -3.5699909043253002e+00  -3.5723246896168499e+00  -3.5746512011472502e+00  -3.5769704275375198e+00
-3.5792823576722701e+00  -3.5815869806997802e+00  -3.5838842860321201e+00  -3.5861742633452400e+00  -3.5884569025790798e+00
-3.5907321939376500e+00  -3.5930001278891699e+00  -3.5952606951661199e+00  -3.5975138867653702e+00  -3.5997596939482701e+00
-3.6019981082407502e+00  -3.6042291214333901e+00  -3.6064527255815699e+00  -3.6086689130055101e+00  -3.6108776762904000e+00
-3.6130790082864599e+00  -3.6152729021090799e+00  -3.6174593511388702e+00  -3.6196383490217499e+00  -3.6218098896691000e+00
-3.6239739672577800e+00  -3.6261305762302500e+00  -3.6282797112946601e+00  -3.6304213674249399e+00  -3.6325555398608902e+00
-3.6346822241082601e+00  -3.6368014159388200e+00  -3.6389131113904800e+00  -3.6410173067673699e+00  -3.6431139986399099e+00
-3.6452031838448899e+00  -3.6472848594855698e+00  -3.6493590229317698e+00  -3.6514256718199301e+00  -3.6534848040532002e+00
-3.6555364178015401e+00  -3.6575805115017701e+00  -3.6596170838576900e+00  -3.6616461338401201e+00  -3.6636676606870000e+00
-3.6656816639034702e+00  -3.6676881432619401e+00  -3.6696870988021901e+00  -3.6716785308314202e+00  -3.6736624399243301e+00
-3.6756388269232199e+00  -3.6776076929380501e+00  -3.6795690393465099e+00  -3.6815228677941101e+00  -3.6834691801942401e+00
-3.6854079787282599e+00  -3.6873392658455502e+00  -3.6892630442636198e+00  -3.6911793169681402e+00  -3.6930880872130598e+00
-3.6949893585206199e+00  -3.6968831346814901e+00  -3.6987694197547900e+00  -3.7006482180681801e+00  -3.7025195342179300e+00
-3.7043833730690001e+00  -3.7062397397550799e+00  -3.7080886396786799e+00  -3.7099300785112002e+00  -3.7117640621929899e+00
-3.7135905969334200e+00  -3.7154096892109498e+00  -3.7172213457731802e+00  -3.7190255736369400e+00  -3.7208223800883600e+00
-3.7226117726828898e+00  -3.7243937592454102e+00  -3.7261683478702898e+00  -3.7279355469214401e+00  -3.7296953650323599e+00
-3.7314478111062401e+00  -3.7331928943160100e+00  -3.7349306241043698e+00  -3.7366610101839202e+00  -3.7383840625371301e+00
-3.7400997914164900e+00  -3.7418082073445400e+00  -3.7435093211138799e+00  -3.7452031437873199e+00  -3.7468896866978700e+00
-3.7485689614488402e+00  -3.7502409799138601e+00  -3.7519057542369798e+00  -3.7535632968327000e+00  -3.7552136203860602e+00
-3.7568567378526501e+00  -3.7584926624586998e+00  -3.7601214077011500e+00  -3.7617429873476600e+00  -3.7633574154367100e+00
-3.7649647062776301e+00  -3.7665648744506899e+00  -3.7681579348070899e+00  -3.7697439024691000e+00  -3.7713227928300399e+00
-3.7728946215543999e+00  -3.7744594045765600e+00  -3.7760171579540902e+00  -3.7775678977207199e+00  -3.7791116398851399e+00
-3.7806484004310001e+00  -3.7821781953169200e+00  -3.7837010404764801e+00  -3.7852169518182399e+00  -3.7867259452256898e+00
-3.7882280365573102e+00  -3.7897232416465401e+00  -3.7912115763017700e+00  -3.7926930563063599e+00  -3.7941676974186400e+00
-3.7956355153718899e+00  -3.7970965258743701e+00  -3.7985507446093001e+00  -3.7999981872348401e+00  -3.8014388693841501e+00
-3.8028728066653201e+00  -3.8043000146614299e+00  -3.8057205089305000e+00  -3.8071343050055400e+00  -3.8085414183944901e+00
-3.8099418645802801e+00  -3.8113356590207901e+00  -3.8127228171488801e+00  -3.8141033543723402e+00  -3.8154772860739699e+00
-3.8168446276114798e+00  -3.8182053943176002e+00  -3.8195596014999702e+00  -3.8209072644412299e+00  -3.8222483983989699e+00
-3.8235830186057398e+00  -3.8249111402690601e+00  -3.8262327785714101e+00  -3.8275479486702300e+00  -3.8288566656979399e+00
